freq,psd_x,psd_y,psd_z,psd_xyz
0.0,5.602e+02,1.011e+01,9.456e+00,5.798e+02
1.5,3.206e+02,2.184e+01,3.526e+01,3.777e+02
3.1,2.567e+01,2.330e+01,4.272e+01,9.170e+01
4.6,3.327e+02,2.399e+01,4.536e+01,4.020e+02
6.2,1.234e+03,2.131e+01,4.458e+01,1.300e+03
7.7,2.079e+03,2.100e+01,4.165e+01,2.142e+03
9.2,3.038e+03,2.027e+01,4.002e+01,3.099e+03
10.8,4.250e+03,2.083e+01,4.225e+01,4.313e+03
12.3,5.755e+03,2.132e+01,4.505e+01,5.821e+03
13.9,7.214e+03,2.260e+01,4.309e+01,7.279e+03
15.4,8.891e+03,2.127e+01,4.374e+01,8.956e+03
16.9,1.104e+04,2.089e+01,4.194e+01,1.111e+04
18.5,1.407e+04,2.152e+01,4.132e+01,1.413e+04
20.0,1.737e+04,2.291e+01,4.032e+01,1.743e+04
21.6,2.102e+04,2.304e+01,4.396e+01,2.108e+04
23.1,2.432e+04,2.461e+01,4.417e+01,2.438e+04
24.6,2.799e+04,2.396e+01,5.282e+01,2.806e+04
26.2,3.384e+04,2.454e+01,6.415e+01,3.393e+04
27.7,4.138e+04,2.571e+01,6.510e+01,4.147e+04
29.3,5.029e+04,2.521e+01,5.880e+01,5.037e+04
30.8,6.127e+04,3.002e+01,6.832e+01,6.137e+04
32.3,7.536e+04,4.085e+01,8.190e+01,7.549e+04
33.9,9.067e+04,4.397e+01,7.207e+01,9.078e+04
35.4,1.082e+05,4.705e+01,6.061e+01,1.083e+05
37.0,1.328e+05,8.106e+01,7.102e+01,1.329e+05
38.5,1.720e+05,1.402e+02,1.029e+02,1.722e+05
40.1,2.256e+05,2.356e+02,1.521e+02,2.260e+05
41.6,2.956e+05,4.139e+02,2.196e+02,2.963e+05
43.1,3.978e+05,8.074e+02,2.767e+02,3.988e+05
44.7,5.613e+05,1.406e+03,3.171e+02,5.630e+05
46.2,8.047e+05,1.385e+03,3.862e+02,8.065e+05
47.8,1.100e+06,2.366e+03,6.360e+02,1.103e+06
49.3,1.392e+06,4.698e+03,1.055e+03,1.397e+06
50.8,1.598e+06,8.421e+03,1.618e+03,1.608e+06
52.4,1.592e+06,1.198e+04,2.214e+03,1.606e+06
53.9,1.401e+06,9.473e+03,2.909e+03,1.413e+06
55.5,1.152e+06,3.372e+03,2.062e+03,1.158e+06
57.0,9.450e+05,1.097e+03,1.090e+03,9.472e+05
58.5,7.862e+05,2.481e+03,6.754e+02,7.894e+05
60.1,6.379e+05,5.225e+03,1.383e+03,6.445e+05
61.6,5.083e+05,8.511e+03,3.289e+03,5.201e+05
63.2,3.922e+05,1.118e+04,5.076e+03,4.084e+05
64.7,2.975e+05,1.325e+04,5.639e+03,3.164e+05
66.2,2.356e+05,1.563e+04,6.054e+03,2.573e+05
67.8,1.982e+05,1.526e+04,6.210e+03,2.197e+05
69.3,1.741e+05,7.995e+03,3.853e+03,1.859e+05
70.9,1.432e+05,3.481e+03,2.006e+03,1.487e+05
72.4,1.094e+05,1.681e+03,1.293e+03,1.124e+05
73.9,9.261e+04,1.112e+03,1.382e+03,9.511e+04
75.5,8.853e+04,1.302e+03,2.021e+03,9.186e+04
77.0,7.531e+04,1.205e+03,2.517e+03,7.903e+04
78.6,6.480e+04,8.647e+02,2.934e+03,6.860e+04
80.1,5.834e+04,1.227e+03,3.784e+03,6.335e+04
81.6,4.605e+04,1.735e+03,4.036e+03,5.182e+04
83.2,3.819e+04,2.103e+03,4.560e+03,4.485e+04
84.7,4.082e+04,2.001e+03,4.345e+03,4.717e+04
86.3,4.533e+04,1.655e+03,3.286e+03,5.027e+04
87.8,4.671e+04,1.135e+03,2.110e+03,4.996e+04
89.3,3.930e+04,1.018e+03,2.108e+03,4.243e+04
90.9,4.438e+04,9.433e+02,3.173e+03,4.850e+04
92.4,7.497e+04,1.051e+03,5.737e+03,8.176e+04
94.0,1.227e+05,1.211e+03,7.392e+03,1.314e+05
95.5,1.490e+05,1.345e+03,7.385e+03,1.577e+05
97.0,1.597e+05,1.598e+03,6.063e+03,1.674e+05
98.6,1.679e+05,1.967e+03,4.744e+03,1.746e+05
100.1,1.702e+05,2.272e+03,3.875e+03,1.764e+05
101.7,1.663e+05,2.477e+03,3.601e+03,1.724e+05
103.2,1.606e+05,2.401e+03,3.549e+03,1.666e+05
104.8,1.578e+05,2.114e+03,3.407e+03,1.633e+05
106.3,1.532e+05,1.745e+03,3.119e+03,1.580e+05
107.8,1.510e+05,1.482e+03,2.825e+03,1.553e+05
109.4,1.538e+05,1.309e+03,2.501e+03,1.576e+05
110.9,1.602e+05,1.197e+03,2.264e+03,1.636e+05
112.5,1.629e+05,9.845e+02,1.910e+03,1.658e+05
114.0,1.803e+05,7.874e+02,1.786e+03,1.828e+05
115.5,2.169e+05,7.745e+02,2.086e+03,2.197e+05
117.1,2.539e+05,8.982e+02,2.460e+03,2.573e+05
118.6,2.902e+05,1.091e+03,2.735e+03,2.940e+05
120.2,3.129e+05,1.265e+03,2.724e+03,3.169e+05
121.7,3.313e+05,1.434e+03,2.527e+03,3.353e+05
123.2,3.531e+05,1.689e+03,2.385e+03,3.572e+05
124.8,3.658e+05,1.809e+03,2.171e+03,3.698e+05
126.3,3.674e+05,1.866e+03,2.048e+03,3.714e+05
127.9,3.837e+05,1.858e+03,2.023e+03,3.876e+05
129.4,4.171e+05,1.811e+03,2.059e+03,4.209e+05
130.9,4.148e+05,1.832e+03,2.126e+03,4.187e+05
132.5,3.028e+05,1.567e+03,1.932e+03,3.063e+05
134.0,7.120e+04,1.045e+03,1.469e+03,7.371e+04
135.6,1.531e+04,9.512e+02,1.319e+03,1.758e+04
137.1,1.328e+04,9.866e+02,1.324e+03,1.559e+04
138.6,1.426e+04,8.121e+02,1.175e+03,1.625e+04
140.2,1.438e+04,7.652e+02,1.159e+03,1.630e+04
141.7,1.335e+04,8.335e+02,1.184e+03,1.536e+04
143.3,1.318e+04,9.346e+02,1.199e+03,1.531e+04
144.8,1.223e+04,1.149e+03,1.227e+03,1.460e+04
146.3,1.147e+04,1.328e+03,1.336e+03,1.413e+04
147.9,9.847e+03,1.395e+03,1.189e+03,1.243e+04
149.4,6.951e+03,1.538e+03,1.107e+03,9.597e+03
151.0,4.129e+03,1.850e+03,1.204e+03,7.183e+03
152.5,2.597e+03,2.104e+03,1.265e+03,5.965e+03
154.0,2.789e+03,2.332e+03,1.367e+03,6.488e+03
155.6,4.764e+03,2.423e+03,1.422e+03,8.609e+03
157.1,8.142e+03,2.289e+03,1.425e+03,1.186e+04
158.7,1.283e+04,2.216e+03,1.483e+03,1.653e+04
160.2,1.682e+04,2.262e+03,1.753e+03,2.083e+04
161.7,1.968e+04,1.971e+03,1.583e+03,2.323e+04
163.3,2.206e+04,1.703e+03,1.376e+03,2.514e+04
164.8,2.224e+04,1.453e+03,1.273e+03,2.497e+04
166.4,1.864e+04,1.147e+03,1.160e+03,2.095e+04
167.9,1.874e+04,9.514e+02,1.222e+03,2.091e+04
169.5,1.922e+04,9.273e+02,1.360e+03,2.151e+04
171.0,1.746e+04,8.158e+02,1.193e+03,1.946e+04
172.5,1.867e+04,8.873e+02,1.340e+03,2.090e+04
174.1,1.980e+04,9.333e+02,1.367e+03,2.210e+04
175.6,2.090e+04,1.005e+03,1.388e+03,2.329e+04
177.2,2.297e+04,1.006e+03,1.450e+03,2.542e+04
178.7,2.531e+04,8.877e+02,1.434e+03,2.764e+04
180.2,2.671e+04,8.336e+02,1.493e+03,2.904e+04
181.8,2.749e+04,8.608e+02,1.651e+03,3.000e+04
183.3,2.789e+04,9.479e+02,1.847e+03,3.068e+04
184.9,2.555e+04,1.018e+03,2.004e+03,2.857e+04
186.4,2.240e+04,1.115e+03,2.251e+03,2.577e+04
187.9,1.946e+04,1.228e+03,2.471e+03,2.316e+04
189.5,1.682e+04,1.220e+03,2.470e+03,2.051e+04
191.0,1.580e+04,1.206e+03,2.459e+03,1.947e+04
192.6,1.741e+04,1.222e+03,2.444e+03,2.108e+04
194.1,2.058e+04,1.205e+03,2.322e+03,2.411e+04
195.6,2.064e+04,1.411e+03,2.382e+03,2.443e+04
197.2,1.947e+04,1.613e+03,2.292e+03,2.337e+04
198.7,1.935e+04,1.903e+03,2.364e+03,2.362e+04
